# 25 deg. C. source: https://pubs.rsc.org/fi/content/articlelanding/2017/cc/c7cc04160h/unauth
# source: DOI = 10.1039/C7CC04160H
pressure[bar],uptake[mmol/g]
1.00288924559,6.24857802809
0.949438202247,6.21659834117
0.898876404494,6.16374628777
0.854093097913,6.12141430976
0.803531300161,6.08946817971
0.755858747994,6.03664968317
0.705296950241,5.97334466809
0.654735152488,5.92049261469
0.601284109149,5.85715404276
0.555056179775,5.79389936298
0.505939004815,5.74106408801
0.468378812199,5.6779100788
0.435152487961,5.62525936656
0.406260032103,5.5726589896
0.370144462279,5.50952175883
0.335473515249,5.43594834481
0.305136436597,5.36242526608
0.270465489567,5.27839889039
0.237239165329,5.21529521647
0.204012841091,5.09992673419
0.169341894061,4.97408851181
0.137560192616,4.82737792294
0.101444622793,4.58654034373
0.0913322632424,4.481893278
0.0797752808989,4.38768239551
0.0725521669342,4.28306888664
0.0624398073836,4.14706293589
0.0508828250401,3.97968132169
0.0422150882825,3.73916253265
0.0335473515249,3.46728485859
0.0205457463884,2.89222096073
0.0133226324238,2.3172241766
